# angle        average        +1sigma        +2sigma        -1sigma        -2sigma
0.0000000000 63.7214862981 66.3604772765 68.9994682550 61.0824953196 58.4435043412
1.0000000000 63.5770180769 66.2086709707 68.8403238645 60.9453651831 58.3137122894
2.0000000000 63.1408429327 65.7506125144 68.3603820960 60.5310733510 57.9213037694
3.0000000000 62.4052885337 64.9790153514 67.5527421691 59.8315617159 57.2578348982
4.0000000000 61.3596023317 63.8837519135 66.4079014952 58.8354527500 56.3113031683
5.0000000000 59.9926877163 62.4545654507 64.9164431851 57.5308099820 55.0689322476
6.0000000000 58.2963571394 60.6842919632 63.0722267870 55.9084223157 53.5204874919
7.0000000000 56.2686276202 58.5721207446 60.8756138690 53.9651344958 51.6616413713
8.0000000000 53.9165897115 56.1264238494 58.3362579873 51.7067555737 49.4969214358
9.0000000000 51.2584466106 53.3667614338 55.4750762571 49.1501317873 47.0418169640
10.0000000000 48.3244413462 50.3247737700 52.3251061938 46.3241089223 44.3237764985
11.0000000000 45.1565542548 47.0438482277 48.9311422006 43.2692602819 41.3819663090
12.0000000000 41.8070209135 43.5776113416 45.3482017697 40.0364304854 38.2658400573
13.0000000000 38.3358644952 39.9874398326 41.6390151701 36.6842891578 35.0327138203
14.0000000000 34.8077631490 36.3393097243 37.8708562996 33.2762165738 31.7446699985
15.0000000000 31.2886192548 32.7003560088 34.1120927629 29.8768825008 28.4651457467
16.0000000000 27.8422009375 29.1355056403 30.4288103431 26.5488962347 25.2555915319
17.0000000000 24.5271696875 25.7045038197 26.8818379519 23.3498355553 22.1725014231
18.0000000000 21.3947178365 22.4595550601 23.5243922837 20.3298806130 19.2650433894
19.0000000000 18.4869243510 19.4436838672 20.4004433834 17.5301648348 16.5734053185
20.0000000000 15.8358331971 16.6898146093 17.5437960216 14.9818517849 14.1278703726
21.0000000000 13.4631784615 14.2204994463 14.9778204312 12.7058574767 11.9485364919
22.0000000000 11.3806335553 12.0481570245 12.7156804937 10.7131100861 10.0455866169
23.0000000000 9.5904482428 10.1756907155 10.7609331883 9.0052057700 8.4199632973
24.0000000000 8.0863565457 8.5973652627 9.1083739797 7.5753478287 7.0643391117
25.0000000000 6.8546646683 7.2998534373 7.7450422064 6.4094758992 5.9642871301
26.0000000000 5.8754683990 6.2634049011 6.6513414031 5.4875318970 5.0995953950
27.0000000000 5.1239621346 5.4631099124 5.8022576902 4.7848143568 4.4456665790
28.0000000000 4.5718127356 4.8702455953 5.1686784550 4.2733798759 3.9749470162
29.0000000000 4.1885638437 4.4536908836 4.7188179235 3.9234368039 3.6583097640
30.0000000000 3.9430204255 4.1813754993 4.4197305731 3.7046653517 3.4663102779
31.0000000000 3.8045531779 4.0217001090 4.2388470400 3.5874062468 3.3702593157
32.0000000000 3.7442539784 3.9448285286 4.1454030789 3.5436794281 3.3431048778
33.0000000000 3.7358824543 3.9237446019 4.1116067495 3.5480203068 3.3601581592
34.0000000000 3.7565577740 3.9349891137 4.1134204533 3.5781264344 3.3996950948
35.0000000000 3.7871756755 3.9590476337 4.1309195920 3.6153037172 3.4434317590
36.0000000000 3.8125576779 3.9804184413 4.1482792047 3.6446969145 3.4768361511
37.0000000000 3.8213633630 3.9874316269 4.1534998909 3.6552950990 3.4892268351
38.0000000000 3.8058169231 3.9719109152 4.1380049073 3.6397229309 3.4736289388
39.0000000000 3.7613077740 3.9287575559 4.0962073378 3.5938579922 3.4264082103
40.0000000000 3.6859245096 3.8555118633 4.0250992170 3.5163371559 3.3467498023
41.0000000000 3.5799739399 3.7519222650 3.9238705902 3.4080256148 3.2360772896
42.0000000000 3.4455206731 3.6195358942 3.7935511153 3.2715054520 3.0974902308
43.0000000000 3.2859672644 3.4613176645 3.6366680646 3.1106168643 2.9352664642
44.0000000000 3.1056803005 3.2812994923 3.4569186841 2.9300611087 2.7544419169
45.0000000000 2.9096591442 3.0842587564 3.2588583686 2.7350595320 2.5604599198
46.0000000000 2.7032387596 2.8754194604 3.0476001611 2.5310580589 2.3588773581
47.0000000000 2.4918213534 2.6601750091 2.8285286648 2.3234676976 2.1551140419
48.0000000000 2.2806346322 2.4438319762 2.6070293202 2.1174372882 1.9542399442
49.0000000000 2.0745184135 2.2313790126 2.3882396118 1.9176578143 1.7607972151
50.0000000000 1.8777467236 2.0272896604 2.1768325973 1.7282037867 1.5786608498
51.0000000000 1.6938905385 1.8353661223 1.9768417062 1.5524149546 1.4109393707
52.0000000000 1.5257276058 1.6586312019 1.7915347981 1.3928240096 1.2599204135
53.0000000000 1.3752013678 1.4992719131 1.6233424585 1.2511308225 1.1270602771
54.0000000000 1.2434281423 1.3586341652 1.4738401881 1.1282221194 1.0130160965
55.0000000000 1.1307479750 1.2372643757 1.3437807764 1.0242315743 0.9177151736
56.0000000000 1.0368109971 1.1349896931 1.2331683891 0.9386323011 0.8404536051
57.0000000000 0.9606892315 1.0510260325 1.1413628334 0.8703524305 0.7800156295
58.0000000000 0.9010021221 0.9841027432 1.0672033643 0.8179015010 0.7348008799
59.0000000000 0.8560444000 0.9325913064 1.0091382128 0.7794974936 0.7029505872
60.0000000000 0.8239060171 0.8946280068 0.9653499965 0.7531840273 0.6824620376
61.0000000000 0.8025770389 0.8682229636 0.9338688882 0.7369311143 0.6712851897
62.0000000000 0.7900333029 0.8513512140 0.9126691250 0.7287153918 0.6673974807
63.0000000000 0.7843019031 0.8420238327 0.8997457623 0.7265799735 0.6688580439
64.0000000000 0.7835084885 0.8383402018 0.8931719152 0.7286767751 0.6738450617
65.0000000000 0.7859098536 0.8385238709 0.8911378882 0.7332958363 0.6806818190
66.0000000000 0.7899159683 0.8409451574 0.8919743466 0.7388867791 0.6878575899
67.0000000000 0.7941053663 0.8441348477 0.8941643291 0.7440758850 0.6940464036
68.0000000000 0.7972368382 0.8467930511 0.8963492640 0.7476806253 0.6981244124
69.0000000000 0.7982591889 0.8477968447 0.8973345005 0.7487215332 0.6991838774
70.0000000000 0.7963196365 0.8462086985 0.8960977605 0.7464305746 0.6965415126
71.0000000000 0.7907703675 0.8412857391 0.8918011106 0.7402549960 0.6897396245
72.0000000000 0.7811720844 0.8324881046 0.8838041248 0.7298560642 0.6785400440
73.0000000000 0.7672929913 0.8194835908 0.8716741902 0.7151023919 0.6629117925
74.0000000000 0.7491018712 0.8021461727 0.8551904742 0.6960575696 0.6430132681
75.0000000000 0.7267541130 0.7805464374 0.8343387618 0.6729617886 0.6191694642
76.0000000000 0.7005706452 0.7549336835 0.8092967219 0.6462076068 0.5918445685
77.0000000000 0.6710103550 0.7257101299 0.7804099048 0.6163105802 0.5616108053
78.0000000000 0.6386376582 0.6933992856 0.7481609130 0.5838760308 0.5291144034
79.0000000000 0.6040874596 0.6586106831 0.7131339066 0.5495642361 0.4950410127
80.0000000000 0.5680300947 0.6220040020 0.6759779093 0.5140561874 0.4600822801
81.0000000000 0.5311387671 0.5842551471 0.6373715272 0.4780223870 0.4249060069
82.0000000000 0.4940615339 0.5460265673 0.5979916006 0.4420965005 0.3901314672
83.0000000000 0.4573992207 0.5079433270 0.5584874333 0.4068551144 0.3563110081
84.0000000000 0.4216897822 0.4705755558 0.5194613294 0.3728040086 0.3239182350
85.0000000000 0.3873989322 0.4344272417 0.4814555512 0.3403706227 0.2933423132
86.0000000000 0.3549162041 0.3999305183 0.4449448325 0.3099018899 0.2648875756
87.0000000000 0.3245553012 0.3674444313 0.4103335614 0.2816661711 0.2387770410
88.0000000000 0.2965573594 0.3372567437 0.3779561280 0.2558579750 0.2151585907
89.0000000000 0.2710958875 0.3095875607 0.3480792339 0.2326042143 0.1941125411
90.0000000000 0.2482823498 0.2845936562 0.3209049626 0.2119710434 0.1756597370
91.0000000000 0.2281716577 0.2623727501 0.2965738426 0.1939705652 0.1597694728
92.0000000000 0.2107671654 0.2429672287 0.2751672921 0.1785671020 0.1463670387
93.0000000000 0.1960251120 0.2263672024 0.2567092928 0.1656830217 0.1353409313
94.0000000000 0.1838586341 0.2125131181 0.2411676021 0.1552041501 0.1265496661
95.0000000000 0.1741416306 0.2012982358 0.2284548410 0.1469850253 0.1198284201
96.0000000000 0.1667128753 0.1925716790 0.2184304828 0.1408540715 0.1149952677
97.0000000000 0.1613805762 0.1861424728 0.2109043694 0.1366186796 0.1118567830
98.0000000000 0.1579276310 0.1817851620 0.2056426930 0.1340700999 0.1102125689
99.0000000000 0.1561176133 0.1792471247 0.2023766362 0.1329881019 0.1098585905
100.0000000000 0.1557013189 0.1782572758 0.2008132327 0.1331453620 0.1105894051
101.0000000000 0.1564236384 0.1785355458 0.2006474533 0.1343117310 0.1121998236
102.0000000000 0.1580304925 0.1798023997 0.2015743068 0.1362585853 0.1144866781
103.0000000000 0.1602753363 0.1817875187 0.2032997011 0.1387631538 0.1172509714
104.0000000000 0.1629250080 0.1842370641 0.2055491201 0.1416129519 0.1203008958
105.0000000000 0.1657646163 0.1869193750 0.2080741337 0.1446098577 0.1234550990
106.0000000000 0.1686012279 0.1896287147 0.2106562015 0.1475737411 0.1265462543
107.0000000000 0.1712664041 0.1921875336 0.2131086631 0.1503452746 0.1294241451
108.0000000000 0.1736175313 0.1944471709 0.2152768106 0.1527878916 0.1319582519
109.0000000000 0.1755380923 0.1962873908 0.2170366893 0.1547887938 0.1340394953
110.0000000000 0.1769370942 0.1976150575 0.2182930207 0.1562591310 0.1355811677
111.0000000000 0.1777477863 0.1983621347 0.2189764832 0.1571334379 0.1365190894
112.0000000000 0.1779259786 0.1984834167 0.2190408547 0.1573685405 0.1368111025
113.0000000000 0.1774480394 0.1979540237 0.2184600079 0.1569420552 0.1364360709
114.0000000000 0.1763088332 0.1967670137 0.2172251943 0.1558506526 0.1353924720
115.0000000000 0.1745196375 0.1949310868 0.2153425361 0.1541081882 0.1336967389
116.0000000000 0.1721061702 0.1924685296 0.2128308889 0.1517438108 0.1313814515
117.0000000000 0.1691067154 0.1894134360 0.2097201566 0.1487999948 0.1284932742
118.0000000000 0.1655703885 0.1858100992 0.2060498099 0.1453306777 0.1250909670
119.0000000000 0.1615555130 0.1817116614 0.2018678098 0.1413993646 0.1212432162
120.0000000000 0.1571280550 0.1771788469 0.1972296387 0.1370772632 0.1170264714
121.0000000000 0.1523601397 0.1722788850 0.1921976304 0.1324413943 0.1125226490
122.0000000000 0.1473285596 0.1670843616 0.1868401635 0.1275727577 0.1078169557
123.0000000000 0.1421133013 0.1616721826 0.1812310638 0.1225544201 0.1029955388
124.0000000000 0.1367960636 0.1561224898 0.1754489160 0.1174696374 0.0981432113
125.0000000000 0.1314587567 0.1505175188 0.1695762809 0.1123999946 0.0933412325
126.0000000000 0.1261820219 0.1449404758 0.1636989298 0.1074235679 0.0886651139
127.0000000000 0.1210437810 0.1394743620 0.1579049431 0.1026131999 0.0841826188
128.0000000000 0.1161178101 0.1342007657 0.1522837213 0.0980348545 0.0799518989
129.0000000000 0.1114724394 0.1291986437 0.1469248480 0.0937462351 0.0760200308
130.0000000000 0.1071693101 0.1245429942 0.1419166782 0.0897956261 0.0724219420
131.0000000000 0.1032623117 0.1203035005 0.1373446894 0.0862211228 0.0691799340
132.0000000000 0.0997966713 0.1165430331 0.1332893950 0.0830503094 0.0663039476
133.0000000000 0.0968081855 0.1133159162 0.1298236468 0.0803004549 0.0637927243
134.0000000000 0.0943226947 0.1106661170 0.1270095393 0.0779792723 0.0616358500
135.0000000000 0.0923557281 0.1086253361 0.1248949441 0.0760861201 0.0598165121
136.0000000000 0.0909123499 0.1072112030 0.1235100560 0.0746134969 0.0583146438
137.0000000000 0.0899872293 0.1064259839 0.1228647385 0.0735484747 0.0571097201
138.0000000000 0.0895648939 0.1062559696 0.1229470453 0.0728738182 0.0561827425
139.0000000000 0.0896201657 0.1066718044 0.1237234430 0.0725685271 0.0555168884
140.0000000000 0.0901188017 0.1076297488 0.1251406959 0.0726078546 0.0550969076
141.0000000000 0.0910182648 0.1090735741 0.1271288834 0.0729629554 0.0549076461
142.0000000000 0.0922686691 0.1109368778 0.1296050865 0.0736004604 0.0549322517
143.0000000000 0.0938138449 0.1131454665 0.1324770881 0.0744822232 0.0551506016
144.0000000000 0.0955925088 0.1156195819 0.1356466549 0.0755654358 0.0555383627
145.0000000000 0.0975395334 0.1182759467 0.1390123600 0.0768031200 0.0560667067
146.0000000000 0.0995872625 0.1210295689 0.1424718753 0.0781449562 0.0567026498
147.0000000000 0.1016668910 0.1237953724 0.1459238538 0.0795384095 0.0574099281
148.0000000000 0.1037098326 0.1264896765 0.1492695204 0.0809299887 0.0581501448
149.0000000000 0.1056490948 0.1290316107 0.1524141265 0.0822665790 0.0588840632
150.0000000000 0.1074205991 0.1313444490 0.1552682988 0.0834967493 0.0595728994
151.0000000000 0.1089644560 0.1333569614 0.1577494669 0.0845719506 0.0601794452
152.0000000000 0.1102261241 0.1350046483 0.1597831726 0.0854475998 0.0606690755
153.0000000000 0.1111574946 0.1362310725 0.1613046505 0.0860839166 0.0610103386
154.0000000000 0.1117177903 0.1369889978 0.1622602054 0.0864465827 0.0611753752
155.0000000000 0.1118743771 0.1372416251 0.1626088731 0.0865071291 0.0611398810
156.0000000000 0.1116033432 0.1369635794 0.1623238156 0.0862431070 0.0608828707
157.0000000000 0.1108899574 0.1361419207 0.1613938839 0.0856379942 0.0603860309
158.0000000000 0.1097288942 0.1347768811 0.1598248680 0.0846809073 0.0596329204
159.0000000000 0.1081243095 0.1328824809 0.1576406523 0.0833661381 0.0586079667
160.0000000000 0.1060897217 0.1304868497 0.1548839776 0.0816925938 0.0572954659
161.0000000000 0.1036476696 0.1276321375 0.1516166054 0.0796632017 0.0556787337
162.0000000000 0.1008292534 0.1243740196 0.1479187859 0.0772844871 0.0537397208
163.0000000000 0.0976734794 0.1207805214 0.1438875634 0.0745664375 0.0514593955
164.0000000000 0.0942264623 0.1169300091 0.1396335558 0.0715229156 0.0488193688
165.0000000000 0.0905405113 0.1129082502 0.1352759892 0.0681727723 0.0458050334
166.0000000000 0.0866730917 0.1088044527 0.1309358137 0.0645417307 0.0424103697
167.0000000000 0.0826857108 0.1047066153 0.1267275198 0.0606648063 0.0386439018
168.0000000000 0.0786427335 0.1006967395 0.1227507455 0.0565887275 0.0345347215
169.0000000000 0.0746101608 0.0968467709 0.1190833810 0.0523735508 0.0301369407
170.0000000000 0.0706543906 0.0932161023 0.1157778141 0.0480926789 0.0255309672
171.0000000000 0.0668409825 0.0898509783 0.1128609742 0.0438309867 0.0208209908
172.0000000000 0.0632334531 0.0867856566 0.1103378600 0.0396812496 0.0161290461
173.0000000000 0.0598921162 0.0840445889 0.1081970617 0.0357396434 0.0115871706
174.0000000000 0.0568729986 0.0816449403 0.1064168821 0.0321010569 0.0073291151
175.0000000000 0.0542268277 0.0795987510 0.1049706744 0.0288549043 0.0034829809
176.0000000000 0.0519981365 0.0779146277 0.1038311189 0.0260816453 0.0001651541
177.0000000000 0.0502244785 0.0765988316 0.1029731847 0.0238501255 -0.0025242276
178.0000000000 0.0489357600 0.0756558779 0.1023759958 0.0222156421 -0.0045044757
179.0000000000 0.0481537245 0.0750888797 0.1020240348 0.0212185694 -0.0057165858
180.0000000000 0.0478915703 0.0748996766 0.1019077829 0.0208834640 -0.0061246423
